f in Hz; Level in dB; Phase in deg
10.0;0.0007886938;177.68571
10.072536;0.0005860369;177.66948
10.1456;0.0004470762;177.6525
10.219193;0.00038819533;177.63464
10.29332;0.00042537338;177.6158
10.367985;0.00055358274;177.59616
10.443191;0.0007469129;177.57634
10.518943;0.0009776151;177.55695
10.595243;0.0012165353;177.53862
10.672098;0.0014340736;177.52196
10.749511;0.0016085228;177.50677
10.827484;0.0017238181;177.4923
10.906023;0.0017634968;177.47772
10.985132;0.0017092561;177.46222
11.064815;0.001554871;177.44516
11.145076;0.0013344672;177.42676
11.225919;0.0010975036;177.40752
11.307348;0.0008943032;177.38799
11.389368;0.0007767591;177.36868
11.471983;0.0007532537;177.34982
11.555198;0.0007810963;177.33128
11.639015;0.0008128824;177.31287
11.723441;0.0007982094;177.29439
11.808479;0.0007014077;177.2757
11.8941345;0.0005312614;177.25687
11.980411;0.0003102544;177.23796
12.067313;6.0303806e-5;177.2191
12.154845;-0.00019488021;177.20033
12.243013;-0.00042785442;177.18155
12.3318205;-0.0006087883;177.16254
12.421271;-0.0007057136;177.14302
12.511372;-0.00069103343;177.1228
12.602125;-0.0005885;177.10197
12.693537;-0.00045992684;177.08084
12.785612;-0.00037065707;177.05977
12.878355;-0.00037982268;177.03905
12.97177;-0.0004614847;177.01874
13.065864;-0.00052541145;176.99869
13.16064;-0.00047530248;176.97874
13.256103;-0.00023240646;176.95874
13.352259;0.00014809144;176.93843
13.449112;0.0005293523;176.91757
13.546667;0.00076663954;176.89587
13.644931;0.00076141953;176.87317
13.743907;0.00058774586;176.84982
13.843601;0.00038633685;176.82637
13.944018;0.00030137878;176.8034
14.045164;0.00038593134;176.78117
14.147043;0.00053722516;176.75943
14.249661;0.00062261015;176.73782
14.353024;0.000524486;176.71603
14.457136;0.00026466692;176.69385
14.562004;-3.466128e-5;176.67116
14.667632;-0.00024486918;176.64781
14.774027;-0.00028686912;176.62386
14.881193;-0.00018884052;176.5996
14.989137;-2.23646e-6;176.57545
15.097863;0.0002193002;176.55179
15.207378;0.0004021051;176.5284
15.317688;0.00045914832;176.50476
15.428798;0.00030154796;176.48035
15.540713;-5.2125262e-5;176.45517
15.653441;-0.00045349222;176.42982
15.766987;-0.00073309144;176.40504
15.881355;-0.00080716185;176.38104
15.996553;-0.00077188236;176.35687
16.112589;-0.00076872826;176.33125
16.229464;-0.0009059569;176.3035
16.347187;-0.0011911019;176.27478
16.465765;-0.0015992757;176.24704
16.585203;-0.0020860306;176.22162
16.705505;-0.0025110838;176.19742
16.826683;-0.0026772683;176.17212
16.948738;-0.0024463136;176.14392
17.07168;-0.0019793124;176.11346
17.195513;-0.0016039645;176.08276
17.320244;-0.0015736787;176.0533
17.445879;-0.001806784;176.0245
17.572426;-0.00204976;175.99474
17.69989;-0.0021218641;175.96309
17.82828;-0.0020828156;175.93105
17.957602;-0.0020944632;175.90128
18.08786;-0.0022509475;175.87497
18.219065;-0.0024922513;175.84999
18.35122;-0.0027139713;175.82317
18.484333;-0.0028283151;175.7931
18.618414;-0.0027651084;175.76117
18.753466;-0.002466181;175.72903
18.889498;-0.0020458952;175.69725
19.026516;-0.0017918181;175.6654
19.164528;-0.0019090774;175.63318
19.303541;-0.0021966295;175.60085
19.443563;-0.0022482858;175.569
19.584602;-0.0019122995;175.53789
19.726662;-0.0014834226;175.50713
19.869753;-0.0013054828;175.47629
20.013882;-0.0013839295;175.44537
20.159058;-0.0014688622;175.41478
20.305285;-0.0014222269;175.3844
20.452574;-0.0013766312;175.35297
20.60093;-0.0015193837;175.31905
20.750362;-0.001860717;175.2835
20.900879;-0.0022764152;175.24907
21.052488;-0.0026478113;175.21704
21.205196;-0.0028623056;175.1854
21.359013;-0.002838663;175.15189
21.513945;-0.0027014446;175.11708
21.67;-0.0027002522;175.08316
21.827187;-0.0029377572;175.05022
21.985514;-0.003334227;175.01558
22.14499;-0.003791408;174.9776
22.305624;-0.0042065596;174.93793
22.467422;-0.004491139;174.8989
22.630394;-0.004660231;174.86162
22.794548;-0.004784724;174.82646
22.959892;-0.0048880903;174.7917
23.126436;-0.004951926;174.75351
23.294188;-0.0049209013;174.71129
23.463158;-0.004675173;174.66968
23.633352;-0.004240547;174.6315
23.804781;-0.004005756;174.59377
23.977453;-0.0042475266;174.55348
24.151379;-0.004605666;174.51201
24.326565;-0.0046349494;174.47151
24.503023;-0.004450277;174.43169
24.68076;-0.00434052;174.39142
24.859787;-0.004245394;174.35095
25.040112;-0.0039668237;174.31114
25.221745;-0.0035217884;174.27248
25.404696;-0.003072716;174.23524
25.588974;-0.0029734448;174.19911
25.774588;-0.0035818552;174.16312
25.96155;-0.0044533443;174.1246
26.149866;-0.0048194905;174.08084
26.33955;-0.0048676417;174.03522
26.53061;-0.005191965;173.99297
26.723053;-0.0058324668;173.95184
26.916893;-0.00655105;173.90761
27.11214;-0.007007947;173.86168
27.308804;-0.0070426627;173.81595
27.506893;-0.0071309563;173.76744
27.70642;-0.0075130393;173.7158
27.907394;-0.007606401;173.66841
28.109825;-0.007255164;173.62616
28.313726;-0.0070499172;173.57985
28.519104;-0.0070093065;173.53001
28.725973;-0.0066903797;173.48499
28.934343;-0.0063664736;173.44229
29.144224;-0.006438756;173.39575
29.355627;-0.006454266;173.34712
29.568563;-0.0061212294;173.29865
29.783045;-0.005845122;173.24931
29.999083;-0.005645244;173.20154
30.216686;-0.0052800053;173.15898
30.43587;-0.005368888;173.11557
30.656641;-0.0062896567;173.06581
30.879015;-0.0071561495;173.01482
31.103003;-0.0076100007;172.96596
31.328613;-0.008002327;172.91788
31.555862;-0.008375478;172.86647
31.784758;-0.008653911;172.8109
32.015316;-0.008863805;172.75658
32.247543;-0.009363578;172.70314
32.481457;-0.010220546;172.64696
32.717068;-0.010352414;172.58891
32.954388;-0.009543473;172.53197
33.193428;-0.008620877;172.47821
33.434204;-0.007991515;172.4253
33.676727;-0.007804842;172.3728
33.921005;-0.008078657;172.32208
34.167057;-0.008654054;172.2673
34.414894;-0.008936972;172.20782
34.66453;-0.008488044;172.15138
34.915977;-0.008476857;172.10156
35.169247;-0.0093052555;172.05188
35.424355;-0.0099915415;171.9941
35.681313;-0.009913537;171.93518
35.940132;-0.009706266;171.88095
36.200832;-0.01034101;171.8259
36.46342;-0.011580256;171.76022
36.727917;-0.0123194065;171.69977
36.994328;-0.012550024;171.6436
37.262672;-0.013118899;171.57018
37.532967;-0.012971113;171.50168
37.805218;-0.012149237;171.44328
38.079445;-0.011622342;171.38184
38.355663;-0.011484943;171.31805
38.63388;-0.01135038;171.25766
38.91412;-0.010884511;171.19945
39.196392;-0.010757067;171.13803
39.48071;-0.01162804;171.07404
39.76709;-0.01195191;171.01318
40.05555;-0.01193193;170.94969
40.3461;-0.012194322;170.88748
40.63876;-0.012577614;170.83
40.93354;-0.013557978;170.76057
41.230457;-0.014823725;170.69016
41.529533;-0.015658692;170.61555
41.830772;-0.0152581055;170.53949
42.1342;-0.014474318;170.472
42.43983;-0.015036844;170.40205
42.747677;-0.015276921;170.33322
43.057755;-0.014356721;170.26321
43.370083;-0.014153946;170.19443
43.684677;-0.014966001;170.12526
44.00155;-0.014757004;170.05408
44.320724;-0.013779033;169.98642
44.642212;-0.014199687;169.91599
44.966034;-0.015515759;169.84764
45.292202;-0.016511427;169.77924
45.62074;-0.017644225;169.70201
45.95166;-0.018626185;169.62239
46.284977;-0.018789234;169.54433
46.620716;-0.019171538;169.4614
46.958885;-0.018972859;169.38129
47.29951;-0.01775859;169.3075
47.64261;-0.01792111;169.22739
47.988194;-0.01805775;169.14717
48.336285;-0.017904233;169.0721
48.6869;-0.017600652;168.99728
49.040062;-0.017942194;168.9261
49.395782;-0.018747166;168.84956
49.754086;-0.018765638;168.76546
50.114986;-0.021361068;168.68546
50.478504;-0.021636497;168.60202
50.844658;-0.021934208;168.5147
51.21347;-0.022181613;168.43265
51.584957;-0.021893566;168.34126
51.95914;-0.022037534;168.2563
52.336037;-0.021627082;168.17535
52.715664;-0.022133768;168.08841
53.09805;-0.021781014;168.00072
53.483204;-0.020868424;167.9226
53.871155;-0.021034451;167.83702
54.26192;-0.022076918;167.75238
54.655518;-0.023605697;167.66818
55.051975;-0.024722958;167.57527
55.451305;-0.025488216;167.48181
55.85353;-0.025911044;167.38817
56.258675;-0.026507756;167.29012
56.66676;-0.02555976;167.19072
57.0778;-0.025419507;167.10141
57.491825;-0.025055801;167.0105
57.908855;-0.024693603;166.92268
58.328907;-0.02570984;166.83078
58.752007;-0.026078658;166.73776
59.178177;-0.027118914;166.64223
59.607437;-0.02936813;166.55472
60.03981;-0.030031173;166.45265
60.47532;-0.029798102;166.3452
60.91399;-0.03043207;166.24168
61.355843;-0.030499488;166.1362
61.8009;-0.029238505;166.0411
62.249184;-0.029285254;165.94104
62.700718;-0.030022506;165.84094
63.15553;-0.030497832;165.741
63.61364;-0.031032788;165.64267
64.07507;-0.031583272;165.54892
64.539856;-0.03427254;165.43907
65.00801;-0.03503616;165.32393
65.47955;-0.034633607;165.21303
65.95453;-0.034511577;165.10136
66.43294;-0.034130383;164.9999
66.914825;-0.03473863;164.89275
67.4002;-0.034126397;164.78374
67.88911;-0.0346956;164.67757
68.38155;-0.03589477;164.57341
68.87757;-0.037284013;164.4669
69.37718;-0.038674727;164.34706
69.880424;-0.03994502;164.2264
70.387314;-0.039819308;164.10553
70.89789;-0.039122853;163.98483
71.412155;-0.039172728;163.87212
71.93016;-0.038643725;163.76173
72.45192;-0.040124226;163.64954
72.97746;-0.04012767;163.53786
73.50682;-0.042461284;163.41768
74.040016;-0.04357261;163.29254
74.57708;-0.045171686;163.16528
75.118034;-0.044365417;163.03587
75.66292;-0.04377802;162.91891
76.211754;-0.04487464;162.79967
76.76457;-0.04510228;162.67326
77.321396;-0.045510124;162.55124
77.88226;-0.04671176;162.43118
78.4472;-0.048672426;162.30449
79.01623;-0.050267432;162.17125
79.589386;-0.05062224;162.03348
80.16671;-0.05012424;161.89952
80.74821;-0.049980048;161.7707
81.33393;-0.05085987;161.64062
81.923904;-0.050878488;161.51503
82.51816;-0.051720407;161.38924
83.116714;-0.054166608;161.2532
83.71962;-0.055877868;161.10675
84.3269;-0.056078654;160.96338
84.938576;-0.055838097;160.82423
85.554695;-0.05559379;160.69058
86.175285;-0.055440452;160.55557
86.80037;-0.057511088;160.41731
87.42999;-0.05908521;160.2798
88.064186;-0.060759004;160.14027
88.70298;-0.062649034;159.9825
89.3464;-0.062154282;159.82686
89.99449;-0.061583266;159.68567
90.647285;-0.06214346;159.54625
91.30481;-0.06361501;159.39626
91.96711;-0.06476112;159.25966
92.63421;-0.06736724;159.10764
93.30615;-0.06930923;158.94714
93.98296;-0.06818438;158.78618
94.66469;-0.06871004;158.63522
95.35136;-0.069066;158.48546
96.04301;-0.069733344;158.33719
96.73967;-0.07163561;158.18561
97.44139;-0.074800916;158.02522
98.1482;-0.07567192;157.85402
98.86014;-0.074440196;157.68672
99.57724;-0.077837795;157.53726
100.299545;-0.078437224;157.37952
101.027084;-0.07717611;157.21329
101.7599;-0.079831615;157.05396
102.49804;-0.08240654;156.87677
103.24153;-0.0830451;156.6997
103.99041;-0.082127266;156.53288
104.74473;-0.08334946;156.36745
105.50451;-0.084085904;156.20428
106.269806;-0.08649064;156.03857
107.04066;-0.08965029;155.85515
107.8171;-0.089855626;155.67241
108.59917;-0.09027504;155.49637
109.38692;-0.09082131;155.3206
110.180374;-0.08990476;155.16139
110.97959;-0.09478515;154.97757
111.7846;-0.09519028;154.79312
112.59545;-0.097901724;154.59071
113.412186;-0.09757882;154.41116
114.23484;-0.09607362;154.2246
115.06347;-0.10076386;154.05669
115.8981;-0.10631966;153.8723
116.73879;-0.10558826;153.65822
117.58558;-0.10588241;153.46532
118.43851;-0.10620685;153.27756
119.29762;-0.10771955;153.09334
120.16297;-0.110501066;152.90544
121.0346;-0.11327124;152.70149
121.912544;-0.11428461;152.49254
122.79686;-0.114752136;152.29646
123.68759;-0.116002224;152.09885
124.584785;-0.11803538;151.90665
125.48848;-0.12203794;151.69899
126.398735;-0.1229559;151.48131
127.3156;-0.122946;151.27438
128.2391;-0.12446888;151.07333
129.16931;-0.12693168;150.87083
130.10626;-0.13013306;150.65846
131.05002;-0.13236043;150.43387
132.00061;-0.13258006;150.22025
132.9581;-0.13328649;150.0115
133.92255;-0.13651744;149.80357
134.89397;-0.14073588;149.57803
135.87245;-0.14169896;149.34195
136.85803;-0.14209734;149.12683
137.85075;-0.14342648;148.91028
138.85068;-0.14629593;148.69499
139.85786;-0.15043776;148.45328
140.87234;-0.1514103;148.21892
141.8942;-0.15200667;147.98947
142.92345;-0.15412977;147.77214
143.96017;-0.15858203;147.54088
145.00441;-0.16142257;147.29012
146.05623;-0.16194455;147.0503
147.11568;-0.1634785;146.82315
148.18282;-0.16717298;146.59027
149.25769;-0.1714286;146.33424
150.34036;-0.172251;146.0812
151.43088;-0.17356946;145.84604
152.52931;-0.17728698;145.6106
153.63571;-0.18171084;145.35266
154.75014;-0.18255739;145.0915
155.87265;-0.18384993;144.84428
157.0033;-0.18678413;144.59744
158.14215;-0.1915377;144.34085
159.28928;-0.19336797;144.06685
160.4447;-0.19435121;143.81151
161.60852;-0.19800968;143.55652
162.78078;-0.20277424;143.29683
163.96155;-0.20460892;143.0135
165.15086;-0.20594446;142.7504
166.34882;-0.2093643;142.48972
167.55547;-0.21449049;142.2168
168.77086;-0.21690218;141.92827
169.99507;-0.2184128;141.6591
171.22816;-0.2221301;141.39413
172.4702;-0.22697322;141.1071
173.72125;-0.22905935;140.81392
174.98137;-0.23088196;140.54176
176.25063;-0.23598449;140.26085
177.5291;-0.24069971;139.96121
178.81683;-0.24218066;139.67023
180.11392;-0.24522667;139.38678
181.42041;-0.25117514;139.09415
182.73637;-0.2538044;138.78242
184.06189;-0.2557043;138.48833
185.39702;-0.26090908;138.20135
186.74184;-0.26601976;137.88542
188.0964;-0.26766485;137.57518
189.4608;-0.27066407;137.28236
190.83508;-0.2777074;136.97064
192.21935;-0.28022918;136.6469
193.61365;-0.28255385;136.34264
195.01805;-0.28893474;136.03273
196.43266;-0.29368272;135.69612
197.85753;-0.295737;135.37672
199.29272;-0.30069047;135.07707
200.73833;-0.30672556;134.74066
202.19443;-0.30879375;134.39725
203.66107;-0.3139409;134.08015
205.13837;-0.32087108;133.74478
206.62639;-0.32359686;133.39821
208.12518;-0.32719496;133.07396
209.63486;-0.3345717;132.72998
211.15549;-0.33738807;132.37732
212.68715;-0.34177566;132.04492
214.22992;-0.34905595;131.69745
215.78387;-0.35253012;131.33543
217.3491;-0.35658967;130.99522
218.92569;-0.3646642;130.63582
220.5137;-0.3684322;130.26945
222.11325;-0.37287763;129.92195
223.72438;-0.38032606;129.556
225.34721;-0.38423267;129.18123
226.98181;-0.38984898;128.82861
228.62827;-0.3969004;128.44635
230.28667;-0.40116897;128.06828
231.95709;-0.40817544;127.70728
233.63965;-0.4144985;127.313354
235.3344;-0.4188824;126.93614
237.04144;-0.4262881;126.558784
238.76086;-0.43289492;126.15606
240.49275;-0.43716824;125.77679
242.23721;-0.44601506;125.38257
243.99434;-0.4507567;124.97667
245.76419;-0.45727804;124.59145
247.54689;-0.4659484;124.18202
249.34251;-0.46959603;123.77441
251.15117;-0.47842482;123.378426
252.97295;-0.4848807;122.95191
254.80794;-0.49129358;122.55302
256.65625;-0.50023836;122.12847
258.51794;-0.50561696;121.70802
260.39316;-0.51436025;121.293434
262.28195;-0.5213514;120.857086
264.18448;-0.5278704;120.44313
266.1008;-0.53861636;120.00151
268.031;-0.543588;119.56132
269.97522;-0.5536823;119.13514
271.93353;-0.56002;118.68028
273.90607;-0.5685597;118.24614
275.89288;-0.5779552;117.78903
277.89413;-0.5845107;117.3467
279.90988;-0.5949979;116.885925
281.94028;-0.60211873;116.43063
283.98538;-0.6121928;115.97638
286.04532;-0.61885154;115.49738
288.1202;-0.6294179;115.0375
290.21014;-0.63911283;114.55424
292.31525;-0.6474535;114.09917
294.4356;-0.65815496;113.61112
296.57135;-0.666556;113.13466
298.72256;-0.67869556;112.647606
300.88943;-0.6864885;112.16046
303.072;-0.69797295;111.67091
305.2704;-0.70648247;111.172386
307.4847;-0.7182837;110.67925
309.71512;-0.72798645;110.16909
311.9617;-0.73946613;109.66841
314.22455;-0.7492855;109.14755
316.50385;-0.7614133;108.64141
318.79968;-0.7719542;108.12032
321.11215;-0.78314835;107.608154
323.4414;-0.7945609;107.07214
325.78754;-0.80690336;106.55069
328.1507;-0.8180887;106.00965
330.531;-0.83114564;105.48366
332.9286;-0.842742;104.93213
335.34354;-0.8559069;104.39367
337.77603;-0.86696833;103.845505
340.22614;-0.8811474;103.29387
342.69403;-0.89290184;102.734764
345.17984;-0.9067208;102.1739
347.68365;-0.91944176;101.611145
350.20566;-0.9340601;101.03891
352.74594;-0.9472223;100.47225
355.30466;-0.961203;99.89089
357.88193;-0.9752825;99.315
360.47787;-0.98972446;98.72391
363.09268;-1.0047743;98.139885
365.72644;-1.0188099;97.54055
368.3793;-1.0345716;96.94496
371.05142;-1.0491787;96.340675
373.74292;-1.065483;95.735374
376.45392;-1.08089;95.12619
379.1846;-1.0970395;94.5091
381.9351;-1.1135672;93.89253
384.70554;-1.1293744;93.26264
387.49606;-1.1466537;92.63493
390.30685;-1.1631328;92.00398
393.13803;-1.180596;91.35976
395.98972;-1.1984311;90.71776
398.86212;-1.2153399;90.07165
401.75534;-1.2340485;89.42173
404.66953;-1.2521725;88.76196
407.6049;-1.2713575;88.10034
410.56152;-1.2900326;87.43199
413.5396;-1.308903;86.76094
416.5393;-1.328849;86.08288
419.56076;-1.3491449;85.40771
422.60413;-1.3685281;84.72136
425.66956;-1.389041;84.02714
428.75723;-1.4095205;83.334206
431.8673;-1.4307805;82.62677
434.99994;-1.4523299;81.92333
438.1553;-1.4740465;81.21351
441.33353;-1.4961531;80.4952
444.53485;-1.5180922;79.77627
447.75937;-1.5412477;79.04709
451.00726;-1.5642718;78.31324
454.27875;-1.5873833;77.57628
457.57394;-1.611852;76.83186
460.89304;-1.6353958;76.086876
464.2362;-1.6604599;75.33107
467.60364;-1.6855267;74.57222
470.99548;-1.7108034;73.80798
474.41196;-1.736029;73.03643
477.85318;-1.7625524;72.26151
481.3194;-1.7888424;71.481865
484.81073;-1.8156887;70.692184
488.3274;-1.8432624;69.90144
491.86957;-1.870958;69.10122
495.43744;-1.8992246;68.297295
499.0312;-1.9277568;67.489784
502.651;-1.9575528;66.67168
506.2971;-1.986534;65.84724
509.9696;-2.0172453;65.02236
513.66876;-2.0474873;64.18946
517.3948;-2.0785255;63.348316
521.14777;-2.1100323;62.49959
524.92804;-2.1426778;61.65062
528.7357;-2.1751456;60.79399
532.571;-2.208004;59.92999
536.4341;-2.2415152;59.058926
540.3252;-2.2758892;58.182262
544.24457;-2.3107216;57.302494
548.1924;-2.345832;56.40762
552.16876;-2.3818693;55.5134
556.1741;-2.4182549;54.611244
560.2084;-2.4555326;53.701775
564.2719;-2.4929466;52.790382
568.365;-2.5313964;51.86796
572.48773;-2.5705888;50.938477
576.6404;-2.6099381;50.00683
580.8232;-2.6500943;49.066273
585.03625;-2.690787;48.11736
589.27997;-2.7324643;47.16232
593.5544;-2.7744381;46.20166
597.85986;-2.8177192;45.233025
602.19653;-2.861488;44.25569
606.5647;-2.9054472;43.274727
610.96454;-2.951095;42.287678
615.3963;-2.9970899;41.29301
619.86017;-3.0440416;40.289917
624.35645;-3.090819;39.278114
628.8854;-3.1393943;38.26098
633.4471;-3.188559;37.238857
638.04193;-3.2383919;36.210148
642.6701;-3.2893362;35.169285
647.3318;-3.3403401;34.122955
652.02734;-3.3931048;33.071407
656.75696;-3.4469001;32.011536
661.5209;-3.501364;30.945084
666.31934;-3.5566077;29.863403
671.15265;-3.6124377;28.787779
676.02094;-3.669567;27.700026
680.9246;-3.7275007;26.604567
685.86383;-3.7871118;25.498386
690.83887;-3.847192;24.3901
695.85;-3.9083831;23.267767
700.89746;-3.9708297;22.144402
705.98157;-4.034483;21.007788
711.10254;-4.0989;19.869932
716.2607;-4.164569;18.721281
721.4562;-4.2309737;17.564709
726.68945;-4.298804;16.404512
731.96063;-4.3684816;15.230432
737.27;-4.438202;14.055714
742.618;-4.510213;12.870774
748.0047;-4.5832353;11.678662
753.4305;-4.6574936;10.475835
758.8956;-4.7329564;9.2664795
764.4004;-4.809679;8.055471
769.9451;-4.8881307;6.8329177
775.5301;-4.9674773;5.6063437
781.1555;-5.049151;4.3686256
786.82184;-5.1313224;3.1254776
792.5292;-5.2153773;1.8734251
798.27795;-5.3015175;0.6162949
804.0684;-5.3877745;-0.6519727
809.9009;-5.47674;-1.921237
815.77563;-5.5666847;-3.1972687
821.693;-5.658628;-4.4872828
827.6533;-5.75165;-5.7792835
833.65686;-5.846804;-7.0735316
839.704;-5.9436088;-8.381424
845.7949;-6.041459;-9.694241
851.93005;-6.1426578;-11.012601
858.1097;-6.2445693;-12.337127
864.33417;-6.347632;-13.666653
870.60376;-6.45357;-15.005361
876.9189;-6.561003;-16.344793
883.2798;-6.6703134;-17.69248
889.6868;-6.781405;-19.044418
896.1403;-6.8949656;-20.40592
902.6406;-7.0097384;-21.767838
909.1881;-7.126839;-23.136877
915.7831;-7.245416;-24.514925
922.4259;-7.3675027;-25.892857
929.1169;-7.4902368;-27.272629
935.85645;-7.615221;-28.663837
