f in Hz; Level in dB; Phase in deg
10.0;15.000146;-0.09569493
10.072536;14.999913;-0.09416187
10.1456;14.999733;-0.09264974
10.219193;14.999641;-0.09158537
10.29332;14.999676;-0.091397844
10.367985;14.9998255;-0.09217369
10.443191;15.000038;-0.093660735
10.518943;15.0002575;-0.09558662
10.595243;15.000423;-0.097665824
10.672098;15.000479;-0.09961913
10.749511;15.000427;-0.1013343
10.827484;15.000312;-0.10281957
10.906023;15.000179;-0.10408101
10.985132;15.000078;-0.10512497
11.064815;15.000043;-0.10596297
11.145076;15.000051;-0.10662112
11.225919;15.000059;-0.107131675
11.307348;15.000028;-0.10752792
11.389368;14.999911;-0.107844986
11.471983;14.999707;-0.108131155
11.555198;14.999459;-0.10844979
11.639015;14.999215;-0.10886694
11.723441;14.999029;-0.109455585
11.808479;14.998935;-0.1102447
11.8941345;14.998922;-0.11113795
11.980411;14.998965;-0.1119993
12.067313;14.99904;-0.11268671
12.154845;14.999118;-0.11308226
12.243013;14.999182;-0.11323484
12.3318205;14.999211;-0.11328729
12.421271;14.999187;-0.11338538
12.511372;14.999093;-0.11367104
12.602125;14.998936;-0.114191875
12.693537;14.998742;-0.11492589
12.785612;14.998539;-0.11585082
12.878355;14.998355;-0.11694681
12.97177;14.998199;-0.11822812
13.065864;14.998072;-0.11973304
13.16064;14.997972;-0.12150905
13.256103;14.997898;-0.12354802
13.352259;14.997866;-0.12547973
13.449112;14.997891;-0.12671512
13.546667;14.997999;-0.12660778
13.644931;14.998193;-0.12487415
13.743907;14.998417;-0.122525916
13.843601;14.99859;-0.12108514
13.944018;14.998632;-0.12213968
14.045164;14.9985075;-0.12610215
14.147043;14.998263;-0.13139285
14.249661;14.997964;-0.13603415
14.353024;14.997671;-0.13825467
14.457136;14.997439;-0.13828981
14.562004;14.99732;-0.13781625
14.667632;14.997369;-0.13860872
14.774027;14.997599;-0.1415693
14.881193;14.997936;-0.14574432
14.989137;14.998284;-0.14972855
15.097863;14.998557;-0.15230009
15.207378;14.99874;-0.15335795
15.317688;14.99886;-0.15348299
15.428798;14.998943;-0.1532475
15.540713;14.999006;-0.15306011
15.653441;14.999049;-0.15312117
15.766987;14.999072;-0.1536308
15.881355;14.999073;-0.15469573
15.996553;14.999044;-0.15621375
16.112589;14.998975;-0.15803531
16.229464;14.99887;-0.16000138
16.347187;14.998778;-0.16191815
16.465765;14.99877;-0.16357099
16.585203;14.998892;-0.16476227
16.705505;14.999094;-0.16539615
16.826683;14.999272;-0.16540551
16.948738;14.999353;-0.16483094
17.07168;14.999388;-0.16424815
17.195513;14.999496;-0.16456454
17.320244;14.999761;-0.16635674
17.445879;15.00008;-0.1686873
17.572426;15.00026;-0.16978617
17.69989;15.000169;-0.16857757
17.82828;14.999894;-0.16640367
17.957602;14.999624;-0.16568011
18.08786;14.999471;-0.16775133
18.219065;14.999387;-0.17142408
18.35122;14.999272;-0.1747579
18.484333;14.999113;-0.1769251
18.618414;14.999009;-0.17875741
18.753466;14.999076;-0.1812605
18.889498;14.999266;-0.18421714
19.026516;14.999381;-0.18627167
19.164528;14.99927;-0.18638372
19.303541;14.999007;-0.18513589
19.443563;14.998779;-0.18389328
19.584602;14.998675;-0.18359785
19.726662;14.998621;-0.18452016
19.869753;14.998518;-0.1867569
20.013882;14.99833;-0.18978521
20.159058;14.99806;-0.19254574
20.305285;14.997756;-0.19444625
20.452574;14.997582;-0.19605297
20.60093;14.997711;-0.19816431
20.750362;14.9980545;-0.20075732
20.900879;14.998299;-0.20315246
21.052488;14.998323;-0.20503548
21.205196;14.998427;-0.20688972
21.359013;14.998922;-0.20925963
21.513945;14.999594;-0.21197471
21.67;14.999919;-0.21445647
21.827187;14.999786;-0.21630819
21.985514;14.999609;-0.2173245
22.14499;14.999672;-0.2174669
22.305624;14.999791;-0.21710461
22.467422;14.999704;-0.2166856
22.630394;14.999448;-0.21636824
22.794548;14.999208;-0.21620168
22.959892;14.999083;-0.21705295
23.126436;14.99909;-0.22063732
23.294188;14.999184;-0.22616768
23.463158;14.999214;-0.22879474
23.633352;14.999091;-0.22621661
23.804781;14.9988985;-0.22320099
23.977453;14.998723;-0.22436342
24.151379;14.9985485;-0.2286382
24.326565;14.998353;-0.23338026
24.503023;14.998254;-0.23703034
24.68076;14.998379;-0.23879267
24.859787;14.998602;-0.24017848
25.040112;14.9986925;-0.24335435
25.221745;14.998613;-0.24640429
25.404696;14.998442;-0.24589337
25.588974;14.998252;-0.24448608
25.774588;14.998126;-0.24749094
25.96155;14.998223;-0.25300297
26.149866;14.998657;-0.2558767
26.33955;14.999005;-0.2571377
26.53061;14.998751;-0.26031095
26.723053;14.998371;-0.26501077
26.916893;14.998565;-0.26909998
27.11214;14.999125;-0.27039918
27.308804;14.999576;-0.2686018
27.506893;14.999637;-0.26891506
27.70642;14.999359;-0.27347624
27.907394;14.999355;-0.2752466
28.109825;14.999753;-0.27208406
28.313726;14.999907;-0.27052498
28.519104;14.999458;-0.2719573
28.725973;14.99851;-0.2730565
28.934343;14.997847;-0.27515358
29.144224;14.998151;-0.28025368
29.355627;14.998652;-0.28413138
29.568563;14.998592;-0.28561676
29.783045;14.998059;-0.2912773
29.999083;14.99755;-0.29874173
30.216686;14.997623;-0.29960558
30.43587;14.997969;-0.30000836
30.656641;14.998149;-0.30592623
30.879015;14.9983225;-0.30923942
31.103003;14.998594;-0.3084982
31.328613;14.998914;-0.30980632
31.555862;14.999366;-0.3116237
31.784758;14.999793;-0.31184146
32.015316;14.999682;-0.31315365
32.247543;14.99948;-0.31641126
32.481457;14.999726;-0.3199979
32.717068;14.999485;-0.32128122
32.954388;14.998819;-0.32029513
33.193428;14.998705;-0.319825
33.434204;14.998691;-0.32208604
33.676727;14.998311;-0.32661232
33.921005;14.997829;-0.3307451
34.167057;14.997775;-0.333444
34.414894;14.997936;-0.33635312
34.66453;14.99768;-0.34144565
34.915977;14.997844;-0.3455303
35.169247;14.998331;-0.34786448
35.424355;14.998315;-0.35079437
35.681313;14.998842;-0.35289815
35.940132;14.999164;-0.35394174
36.200832;14.998591;-0.35670546
36.46342;14.999291;-0.36277735
36.727917;14.999761;-0.36211273
36.994328;14.999248;-0.3572151
37.262672;14.999612;-0.3624259
37.532967;14.999378;-0.36561328
37.805218;14.998501;-0.3644747
38.079445;14.99805;-0.36802742
38.355663;14.997895;-0.37561658
38.63388;14.99845;-0.3789332
38.91412;14.998835;-0.37848914
39.196392;14.998352;-0.37943628
39.48071;14.997905;-0.382327
39.76709;14.997602;-0.38899264
40.05555;14.997409;-0.39682588
40.3461;14.997577;-0.40248826
40.63876;14.998178;-0.40692374
40.93354;14.998855;-0.41027248
41.230457;14.999383;-0.40746674
41.529533;14.999695;-0.40485644
41.830772;14.99915;-0.40675363
42.1342;14.998042;-0.40995574
42.43983;14.998057;-0.4148663
42.747677;14.998702;-0.41730973
43.057755;14.998566;-0.41756022
43.370083;14.997899;-0.41927812
43.684677;14.997569;-0.4248263
44.00155;14.997876;-0.42972258
44.320724;14.997989;-0.43416148
44.642212;14.997254;-0.44558677
44.966034;14.9979;-0.45037225
45.292202;14.998249;-0.45254308
45.62074;14.999114;-0.45409372
45.95166;14.999438;-0.45277977
46.284977;14.999006;-0.45631343
46.620716;14.999114;-0.45667157
46.958885;14.998694;-0.45347455
47.29951;14.998285;-0.4597984
47.64261;14.998071;-0.46305212
47.988194;14.998199;-0.46510774
48.336285;14.997936;-0.47086748
48.6869;14.997571;-0.4819063
49.040062;14.997235;-0.48563305
49.395782;14.997658;-0.48554263
49.754086;14.996853;-0.49366757
50.114986;14.997732;-0.49330455
50.478504;14.998653;-0.504816
50.844658;14.998621;-0.5039756
51.21347;14.998414;-0.5008601
51.584957;14.997926;-0.50284815
51.95914;14.997877;-0.50763434
52.336037;14.998125;-0.50724906
52.715664;14.997075;-0.51819193
53.09805;14.997108;-0.5226567
53.483204;14.997793;-0.52851254
53.871155;14.997547;-0.53337187
54.26192;14.997385;-0.5345495
54.655518;14.997647;-0.54353136
55.051975;14.998536;-0.548158
55.451305;14.999164;-0.5513603
55.85353;14.999718;-0.5469799
56.258675;14.998096;-0.54349494
56.66676;14.997563;-0.5499063
57.0778;14.997926;-0.55930984
57.491825;14.9980135;-0.56519043
57.908855;14.997857;-0.569239
58.328907;14.997378;-0.57323146
58.752007;14.996962;-0.581035
59.178177;14.997557;-0.5885706
59.607437;14.998171;-0.5915154
60.03981;14.998504;-0.5933645
60.47532;14.99848;-0.5951338
60.91399;14.997777;-0.597136
61.355843;14.998408;-0.5993727
61.8009;14.997145;-0.6006096
62.249184;14.997188;-0.6082018
62.700718;14.997168;-0.6144772
63.15553;14.996921;-0.62314427
63.61364;14.996906;-0.62712806
64.07507;14.996617;-0.6339781
64.539856;14.9977865;-0.6423195
65.00801;14.998714;-0.63905984
65.47955;14.9979925;-0.63828385
65.95453;14.997593;-0.64714766
66.43294;14.996921;-0.6515255
66.914825;14.997297;-0.65634024
67.4002;14.996706;-0.6606049
67.88911;14.996939;-0.6700746
68.38155;14.996487;-0.6759489
68.87757;14.996921;-0.68395954
69.37718;14.998731;-0.6887723
69.880424;14.997986;-0.68859386
70.387314;14.997175;-0.6897476
70.89789;14.996458;-0.69236654
71.412155;14.996594;-0.7016809
71.93016;14.997021;-0.7078542
72.45192;14.996708;-0.71197367
72.97746;14.996134;-0.7219801
73.50682;14.996421;-0.72757524
74.040016;14.997669;-0.73262423
74.57708;14.99827;-0.73040986
75.118034;14.996547;-0.7330206
75.66292;14.996179;-0.74289745
76.211754;14.996896;-0.7462377
76.76457;14.996057;-0.7505583
77.321396;14.995731;-0.7660987
77.88226;14.997388;-0.7711756
78.4472;14.997412;-0.77127874
79.01623;14.997119;-0.7825696
79.589386;14.997614;-0.78322583
80.16671;14.996487;-0.7802915
80.74821;14.99589;-0.7919526
81.33393;14.996256;-0.79919714
81.923904;14.996658;-0.80553466
82.51816;14.995614;-0.8152141
83.116714;14.996778;-0.82612395
83.71962;14.997728;-0.8261926
84.3269;14.996953;-0.8269758
84.938576;14.996783;-0.83166504
85.554695;14.996465;-0.8418361
86.175285;14.996282;-0.8457729
86.80037;14.99571;-0.85669464
87.42999;14.996184;-0.86462843
88.064186;14.997352;-0.87101954
88.70298;14.996852;-0.86598885
89.3464;14.99614;-0.87234616
89.99449;14.996371;-0.8830955
90.647285;14.995985;-0.8886452
91.30481;14.995656;-0.902657
91.96711;14.996413;-0.90926623
92.63421;14.996835;-0.91672194
93.30615;14.996973;-0.91705275
93.98296;14.996633;-0.9193823
94.66469;14.995891;-0.9269318
95.35136;14.995636;-0.93837214
96.04301;14.99562;-0.9477288
96.73967;14.99504;-0.9555868
97.44139;14.996777;-0.96405315
98.1482;14.996878;-0.9627778
98.86014;14.9948435;-0.96994567
99.57724;14.996217;-0.96411514
100.299545;14.996869;-0.97035223
101.027084;14.99469;-1.000791
101.7599;14.996557;-1.0090513
102.49804;14.996792;-1.00596
103.24153;14.995931;-1.0099384
103.99041;14.9950285;-1.0164421
104.74473;14.994764;-1.0291085
105.50451;14.994901;-1.0373431
106.269806;14.9956255;-1.0512213
107.04066;14.996031;-1.0528513
107.8171;14.995625;-1.0563198
108.59917;14.995149;-1.0638777
109.38692;14.99469;-1.0737572
110.180374;14.994947;-1.0854322
110.97959;14.994964;-1.096728
111.7846;14.995866;-1.0994121
112.59545;14.995989;-1.0988226
113.412186;14.994394;-1.1102015
114.23484;14.993994;-1.1175251
115.06347;14.994081;-1.1291723
115.8981;14.995248;-1.146375
116.73879;14.995369;-1.1413516
117.58558;14.9943695;-1.1510801
118.43851;14.99407;-1.1622396
119.29762;14.99354;-1.1733657
120.16297;14.994068;-1.1852728
121.0346;14.994883;-1.1914915
121.912544;14.994399;-1.1897146
122.79686;14.99412;-1.2031864
123.68759;14.993575;-1.2105398
124.584785;14.993432;-1.2250259
125.48848;14.994388;-1.2334633
126.398735;14.994854;-1.2364619
127.3156;14.993415;-1.2437962
128.2391;14.993534;-1.2578989
129.16931;14.992947;-1.2705292
130.10626;14.994271;-1.2801896
131.05002;14.99437;-1.2793972
132.00061;14.993631;-1.2916161
132.9581;14.99302;-1.3052307
133.92255;14.993317;-1.3213434
134.89397;14.993954;-1.3277478
135.87245;14.993603;-1.3307062
136.85803;14.992808;-1.336871
137.85075;14.992359;-1.3543669
138.85068;14.992651;-1.3678716
139.85786;14.995111;-1.3655269
140.87234;14.993118;-1.3737161
141.8942;14.992089;-1.3824439
142.92345;14.992301;-1.402237
143.96017;14.993714;-1.4190521
145.00441;14.992567;-1.4188218
146.05623;14.992252;-1.4307065
147.11568;14.992349;-1.4426123
148.18282;14.99257;-1.4547282
149.25769;14.99349;-1.4598948
150.34036;14.993376;-1.4688544
151.43088;14.991195;-1.4776627
152.52931;14.99175;-1.4975713
153.63571;14.992392;-1.5084118
154.75014;14.991977;-1.5070313
155.87265;14.990819;-1.5218952
157.0033;14.991071;-1.5364082
158.14215;14.991828;-1.552337
159.28928;14.99152;-1.5545844
160.4447;14.991005;-1.5642383
161.60852;14.990533;-1.5796783
162.78078;14.991406;-1.5951679
163.96155;14.99126;-1.6022018
165.15086;14.990485;-1.6133877
166.34882;14.99026;-1.6298239
167.55547;14.990924;-1.6396385
168.77086;14.990661;-1.6440815
169.99507;14.989553;-1.6593757
171.22816;14.98949;-1.6752366
172.4702;14.990842;-1.6848676
173.72125;14.990105;-1.6925954
174.98137;14.989187;-1.7104914
176.25063;14.989945;-1.7267073
177.5291;14.990178;-1.7275373
178.81683;14.989131;-1.7396362
180.11392;14.989309;-1.760373
181.42041;14.989771;-1.7713616
182.73637;14.98984;-1.7747175
184.06189;14.988748;-1.7926325
185.39702;14.989036;-1.8104721
186.74184;14.989225;-1.8173834
188.0964;14.988148;-1.827643
189.4608;14.987468;-1.8476453
190.83508;14.989104;-1.859921
192.21935;14.988081;-1.8677415
193.61365;14.988215;-1.8855715
195.01805;14.98892;-1.9016098
196.43266;14.988575;-1.9072878
197.85753;14.987671;-1.9237052
199.29272;14.987761;-1.9476472
200.73833;14.9879265;-1.9558475
202.19443;14.987463;-1.9622635
203.66107;14.987091;-1.9859061
205.13837;14.9880905;-1.9967738
206.62639;14.986574;-2.0050905
208.12518;14.986288;-2.0240755
209.63486;14.986966;-2.0363493
211.15549;14.986691;-2.046457
212.68715;14.985659;-2.0643928
214.22992;14.986736;-2.0813136
215.78387;14.986247;-2.093523
217.3491;14.985927;-2.113719
218.92569;14.986542;-2.1246524
220.5137;14.985597;-2.1329954
222.11325;14.985542;-2.1569498
223.72438;14.986184;-2.1666305
225.34721;14.984764;-2.1803434
226.98181;14.984634;-2.2070434
228.62827;14.985329;-2.2192855
230.28667;14.984103;-2.2265637
231.95709;14.984781;-2.2503088
233.63965;14.985291;-2.260541
235.3344;14.983928;-2.2773013
237.04144;14.984494;-2.2978659
238.76086;14.984012;-2.308392
240.49275;14.983489;-2.3318455
242.23721;14.984369;-2.3463185
243.99434;14.983277;-2.3576941
245.76419;14.983438;-2.3790543
247.54689;14.983933;-2.391723
249.34251;14.982724;-2.4100559
251.15117;14.983013;-2.4289193
252.97295;14.982967;-2.441622
254.80794;14.9824295;-2.463682
256.65625;14.9827795;-2.4803712
258.51794;14.981556;-2.496507
260.39316;14.98219;-2.519173
262.28195;14.982123;-2.5283508
264.18448;14.98157;-2.5511506
266.1008;14.981811;-2.561577
268.031;14.980861;-2.5836449
269.97522;14.98157;-2.6067445
271.93353;14.981408;-2.6210926
273.90607;14.980766;-2.6438591
275.89288;14.981214;-2.6562095
277.89413;14.979849;-2.681644
279.90988;14.978546;-2.686243
281.94028;14.979429;-2.7102385
283.98538;14.981292;-2.7395287
286.04532;14.979896;-2.7496529
288.1202;14.979201;-2.7772295
290.21014;14.979951;-2.7893558
292.31525;14.979469;-2.8129423
294.4356;14.979222;-2.8307743
296.57135;14.978417;-2.8531392
298.72256;14.98029;-2.875052
300.88943;14.97871;-2.8932283
303.072;14.978687;-2.9130213
305.2704;14.97875;-2.9382124
307.4847;14.97818;-2.954314
309.71512;14.977487;-2.9735916
311.9617;14.978007;-2.996211
314.22455;14.977078;-3.0184386
316.50385;14.977956;-3.0446107
318.79968;14.976839;-3.056203
321.11215;14.977021;-3.0839596
323.4414;14.9766;-3.1003654
325.78754;14.976436;-3.130495
328.1507;14.976161;-3.1449122
330.531;14.976575;-3.1697116
332.9286;14.976033;-3.1900806
335.34354;14.9758005;-3.217859
337.77603;14.9754095;-3.2357757
340.22614;14.975924;-3.2636352
342.69403;14.975602;-3.284414
345.17984;14.975633;-3.3054008
347.68365;14.974504;-3.3313165
350.20566;14.974531;-3.355848
352.74594;14.974142;-3.3800938
355.30466;14.974596;-3.4022858
357.88193;14.974204;-3.427939
360.47787;14.974152;-3.446309
363.09268;14.973769;-3.4763274
365.72644;14.973735;-3.5004697
368.3793;14.973864;-3.5269918
371.05142;14.973598;-3.5519454
373.74292;14.972869;-3.576372
376.45392;14.9728155;-3.6028898
379.1846;14.972859;-3.6252472
381.9351;14.972055;-3.6551623
384.70554;14.971914;-3.6779711
387.49606;14.972441;-3.7063043
390.30685;14.971312;-3.7323463
393.13803;14.971232;-3.7581463
395.98972;14.971862;-3.7896218
398.86212;14.97104;-3.8124073
401.75534;14.971483;-3.8393922
404.66953;14.97032;-3.8666434
407.6049;14.970144;-3.895715
410.56152;14.970266;-3.9225302
413.5396;14.969768;-3.9553173
416.5393;14.970121;-3.9820886
419.56076;14.969221;-4.0104737
422.60413;14.969297;-4.040509
425.66956;14.968902;-4.0685153
428.75723;14.968977;-4.0972915
431.8673;14.968231;-4.1254835
434.99994;14.967744;-4.1585593
438.1553;14.968214;-4.1869082
441.33353;14.968059;-4.215897
444.53485;14.967152;-4.2510953
447.75937;14.966921;-4.28007
451.00726;14.96724;-4.311708
454.27875;14.966701;-4.3414874
457.57394;14.9662695;-4.373225
460.89304;14.965682;-4.405725
464.2362;14.965606;-4.437046
467.60364;14.964934;-4.472744
470.99548;14.96503;-4.5042644
474.41196;14.964629;-4.53767
477.85318;14.964554;-4.5694385
481.3194;14.963798;-4.6051655
484.81073;14.963464;-4.635784
488.3274;14.962943;-4.6724563
491.86957;14.962465;-4.707982
495.43744;14.962141;-4.738928
499.0312;14.962147;-4.7747254
502.651;14.961547;-4.813147
506.2971;14.961284;-4.845478
509.9696;14.960711;-4.8816805
513.66876;14.960067;-4.9190235
517.3948;14.959568;-4.95332
521.14777;14.95942;-4.990231
524.92804;14.958999;-5.03006
528.7357;14.95853;-5.0674634
532.571;14.958306;-5.1044574
536.4341;14.957653;-5.139244
540.3252;14.956926;-5.181199
544.24457;14.956558;-5.216628
548.1924;14.955707;-5.2557836
552.16876;14.954988;-5.2941184
556.1741;14.954775;-5.3350086
560.2084;14.953999;-5.3749013
564.2719;14.953162;-5.41302
568.365;14.952667;-5.4570637
572.48773;14.9524145;-5.4949985
576.6404;14.952242;-5.5356073
580.8232;14.951107;-5.5747733
585.03625;14.950065;-5.6166363
589.27997;14.949543;-5.6584554
593.5544;14.948536;-5.702985
597.85986;14.9478655;-5.7436595
602.19653;14.947071;-5.788068
606.5647;14.946064;-5.82822
610.96454;14.945078;-5.872572
615.3963;14.94451;-5.9132175
619.86017;14.943445;-5.9582057
624.35645;14.942958;-6.00126
628.8854;14.942056;-6.044634
633.4471;14.940655;-6.092213
638.04193;14.940406;-6.136136
642.6701;14.939183;-6.181824
647.3318;14.938416;-6.2250943
652.02734;14.937119;-6.276468
656.75696;14.936293;-6.3171577
661.5209;14.935332;-6.364307
666.31934;14.934343;-6.4085035
671.15265;14.933073;-6.457378
676.02094;14.93183;-6.505189
680.9246;14.930846;-6.550612
685.86383;14.9304085;-6.6011424
690.83887;14.928671;-6.6481256
695.85;14.927256;-6.6965046
700.89746;14.926229;-6.7430415
705.98157;14.924963;-6.792661
711.10254;14.923318;-6.843023
716.2607;14.922777;-6.890176
721.4562;14.9215975;-6.9396634
726.68945;14.919792;-6.9911437
731.96063;14.918576;-7.0410905
737.27;14.917595;-7.089905
742.618;14.916105;-7.1395454
748.0047;14.913972;-7.189798
753.4305;14.913609;-7.241885
758.8956;14.911946;-7.2948303
764.4004;14.909995;-7.3463283
769.9451;14.909313;-7.39677
775.5301;14.907696;-7.4497523
781.1555;14.906287;-7.503675
786.82184;14.904689;-7.5551376
792.5292;14.903175;-7.6116633
798.27795;14.901888;-7.6624007
804.0684;14.900296;-7.716487
809.9009;14.898467;-7.769555
815.77563;14.897526;-7.8263197
821.693;14.895971;-7.8789606
827.6533;14.89396;-7.937076
833.65686;14.892566;-7.989735
839.704;14.891091;-8.0421915
845.7949;14.890063;-8.10324
851.93005;14.888061;-8.157926
858.1097;14.886266;-8.216467
864.33417;14.885081;-8.273525
870.60376;14.883455;-8.32873
876.9189;14.881597;-8.387112
883.2798;14.87984;-8.445007
889.6868;14.8786;-8.502816
896.1403;14.877021;-8.564643
902.6406;14.875037;-8.622183
909.1881;14.873846;-8.6805105
915.7831;14.871819;-8.744257
922.4259;14.870317;-8.802082
929.1169;14.868698;-8.864766
935.85645;14.86762;-8.928994
942.64484;14.865616;-8.989153
949.4825;14.864095;-9.051603
956.36975;14.8626;-9.1123495
963.30695;14.860453;-9.177599
970.2945;14.858854;-9.245231
977.3327;14.85758;-9.307781
984.422;14.856013;-9.37548
991.5627;14.853546;-9.439469
998.7552;14.851891;-9.507876
1005.9998;14.850051;-9.577174
1013.29706;14.848554;-9.64488
1020.6472;14.846494;-9.7141905
1028.0507;14.844813;-9.78251
1035.5078;14.843041;-9.851691
1043.019;14.840683;-9.923411
1050.5848;14.838863;-9.99387
1058.2054;14.837252;-10.064499
1065.8813;14.835196;-10.139678
1073.6129;14.8335085;-10.210937
1081.4005;14.83109;-10.284098
